EC-Lab ASCII FILE
Nb header lines : 48                          

Open Circuit Voltage

Run on channel : 3 (SN 18804)
User : 
Electrode connection : standard
Potential control : Ewe-Ece
Ewe ctrl range : min = -5,00 V, max = 5,00 V
Ewe,I filtering : <None>
Safety Limits :
	Do not start on E overload
Channel : Floating
Acquisition started on : 10/29/2024 09:04:26.660
Loaded Setting File :  NONE
Saved on :
	File : 20241029_Long_OCV_A3_03_OCV_C03.mpr
	Directory : C:\Users\admin\Desktop\Andre\CircularLIB_iFBGA8_Test\A3_iFBG_Gold\Long_OCV\
	Host : 192.168.10.210
Device : VSP-300 (SN 1300)
Address : 192.168.10.241
EC-LAB for windows v11.61 (software)
Internet server v11.61 (firmware)
Command interpretor v11.61 (firmware)
Electrode material : 
Initial state : 
Electrolyte : 
Comments : 
Current amplifier : B-2A30V
Cable : standard
Electrode surface area : 0,001 cm²
Characteristic mass : 0,001 g
Equivalent Weight : 0,000 g/eq.
Density : 0,000 g/cm3
Volume (V) : 0,001 cm³
Record Ece
Record EIS quality indicators
Cycle Definition : Charge/Discharge alternance
tR (h:m:s)          5:00:0,0000         
dER/dt (mV/h)       1,0                 
record              <Ewe>               
dER (mV)            0,00                
dtR (s)             1,0000              
E range min (V)     -5,000              
E range max (V)     5,000               

mode	error	time/s	<Ewe/V>	<Ece>/V	Ewe-Ece/V	
3	0	9,282874630481121E+003	3,8403080E+000	-2,7450910E-001	4,1148171E+000
3	0	9,283874630469014E+003	3,8389399E+000	-2,7552837E-001	4,1144681E+000
3	0	9,284874630456907E+003	3,8385446E+000	-2,7573594E-001	4,1142807E+000
3	0	9,285874630444800E+003	3,8383021E+000	-2,7583522E-001	4,1141372E+000
3	0	9,286874630432692E+003	3,8381217E+000	-2,7588999E-001	4,1140118E+000
3	0	9,287874630420585E+003	3,8379798E+000	-2,7591091E-001	4,1138906E+000
3	0	9,288874630408478E+003	3,8378541E+000	-2,7592066E-001	4,1137748E+000
3	0	9,289874630396371E+003	3,8377473E+000	-2,7593347E-001	4,1136808E+000
3	0	9,290874630384264E+003	3,8376482E+000	-2,7594289E-001	4,1135912E+000
3	0	9,291874630372156E+003	3,8375583E+000	-2,7594531E-001	4,1135035E+000
3	0	9,292874630360049E+003	3,8374729E+000	-2,7595857E-001	4,1134315E+000
3	0	9,293874630347942E+003	3,8374050E+000	-2,7595702E-001	4,1133618E+000
3	0	9,294874630335835E+003	3,8373334E+000	-2,7595031E-001	4,1132836E+000
3	0	9,295874630323728E+003	3,8372667E+000	-2,7594909E-001	4,1132159E+000
3	0	9,296874630311620E+003	3,8372052E+000	-2,7594692E-001	4,1131520E+000
3	0	9,297874630299513E+003	3,8371475E+000	-2,7593979E-001	4,1130872E+000
3	0	9,298874630287406E+003	3,8370950E+000	-2,7593610E-001	4,1130309E+000
3	0	9,299874630275299E+003	3,8370507E+000	-2,7593753E-001	4,1129880E+000
3	0	9,300874630263192E+003	3,8370051E+000	-2,7594125E-001	4,1129465E+000
3	0	9,301874630251084E+003	3,8369620E+000	-2,7593416E-001	4,1128960E+000
3	0	9,302874630238977E+003	3,8369248E+000	-2,7593017E-001	4,1128550E+000
3	0	9,303874630226870E+003	3,8368888E+000	-2,7592212E-001	4,1128111E+000
3	0	9,304874630214763E+003	3,8368518E+000	-2,7592134E-001	4,1127729E+000
3	0	9,305874630202656E+003	3,8368065E+000	-2,7590832E-001	4,1127148E+000
3	0	9,306874630190548E+003	3,8367698E+000	-2,7590927E-001	4,1126790E+000
3	0	9,307874630178441E+003	3,8367267E+000	-2,7590039E-001	4,1126270E+000
3	0	9,308874630166334E+003	3,8367002E+000	-2,7589941E-001	4,1125994E+000
3	0	9,309874630154227E+003	3,8366642E+000	-2,7589643E-001	4,1125607E+000
3	0	9,310874630142120E+003	3,8366396E+000	-2,7588755E-001	4,1125274E+000
3	0	9,311874630130013E+003	3,8366055E+000	-2,7588537E-001	4,1124911E+000
3	0	9,312874630117905E+003	3,8365765E+000	-2,7587575E-001	4,1124520E+000
3	0	9,313874630105798E+003	3,8365557E+000	-2,7587038E-001	4,1124263E+000
3	0	9,314874630093691E+003	3,8365278E+000	-2,7585834E-001	4,1123862E+000
3	0	9,315874630081584E+003	3,8365068E+000	-2,7585974E-001	4,1123667E+000
3	0	9,316874630069477E+003	3,8364835E+000	-2,7585617E-001	4,1123395E+000
3	0	9,317874630057369E+003	3,8364553E+000	-2,7585718E-001	4,1123123E+000
3	0	9,318874630045262E+003	3,8364346E+000	-2,7584556E-001	4,1122804E+000
3	0	9,319874630033155E+003	3,8364158E+000	-2,7584547E-001	4,1122613E+000
3	0	9,320874630021048E+003	3,8363888E+000	-2,7583665E-001	4,1122255E+000
3	0	9,321874630008941E+003	3,8363743E+000	-2,7583838E-001	4,1122127E+000
3	0	9,322874629996833E+003	3,8363593E+000	-2,7583903E-001	4,1121984E+000
3	0	9,323874629984726E+003	3,8363361E+000	-2,7583119E-001	4,1121674E+000
3	0	9,324874629972619E+003	3,8363178E+000	-2,7583104E-001	4,1121488E+000
3	0	9,325874629960512E+003	3,8362975E+000	-2,7582976E-001	4,1121273E+000
3	0	9,326874629948405E+003	3,8362772E+000	-2,7581826E-001	4,1120954E+000
3	0	9,327874629936297E+003	3,8362615E+000	-2,7580482E-001	4,1120663E+000
3	0	9,328874629924190E+003	3,8362474E+000	-2,7579787E-001	4,1120453E+000
3	0	9,329874629912083E+003	3,8362412E+000	-2,7579546E-001	4,1120367E+000
3	0	9,330874629899976E+003	3,8362350E+000	-2,7578539E-001	4,1120205E+000
3	0	9,331874629887869E+003	3,8362210E+000	-2,7577862E-001	4,1119995E+000
3	0	9,332874629875761E+003	3,8362052E+000	-2,7577883E-001	4,1119843E+000
3	0	9,333874629863654E+003	3,8361979E+000	-2,7578035E-001	4,1119781E+000
3	0	9,334874629851547E+003	3,8361807E+000	-2,7578327E-001	4,1119637E+000
3	0	9,335874629839440E+003	3,8361638E+000	-2,7577600E-001	4,1119399E+000
3	0	9,336874629827333E+003	3,8361483E+000	-2,7577212E-001	4,1119204E+000
3	0	9,337874629815225E+003	3,8361390E+000	-2,7577370E-001	4,1119127E+000
3	0	9,338874629803118E+003	3,8361239E+000	-2,7577028E-001	4,1118941E+000
3	0	9,339874629791011E+003	3,8361151E+000	-2,7577406E-001	4,1118894E+000
3	0	9,340874629778904E+003	3,8361073E+000	-2,7577552E-001	4,1118827E+000
3	0	9,341874629766797E+003	3,8361037E+000	-2,7577704E-001	4,1118808E+000
3	0	9,342874629754690E+003	3,8360968E+000	-2,7576831E-001	4,1118650E+000
3	0	9,343874629742582E+003	3,8360882E+000	-2,7576450E-001	4,1118526E+000
3	0	9,344874629730475E+003	3,8360720E+000	-2,7576047E-001	4,1118326E+000
3	0	9,345874629718368E+003	3,8360615E+000	-2,7575582E-001	4,1118174E+000
3	0	9,346874629706261E+003	3,8360505E+000	-2,7575707E-001	4,1118078E+000
3	0	9,347874629694154E+003	3,8360436E+000	-2,7575532E-001	4,1117988E+000
3	0	9,348874629682046E+003	3,8360400E+000	-2,7575696E-001	4,1117969E+000
3	0	9,349874629669939E+003	3,8360400E+000	-2,7576274E-001	4,1118026E+000
3	0	9,350874629657832E+003	3,8360395E+000	-2,7576625E-001	4,1118059E+000
3	0	9,351874629645725E+003	3,8360236E+000	-2,7575964E-001	4,1117830E+000
3	0	9,352874629633618E+003	3,8360167E+000	-2,7575886E-001	4,1117754E+000
3	0	9,353874629621510E+003	3,8360052E+000	-2,7575934E-001	4,1117644E+000
3	0	9,354874629609403E+003	3,8359954E+000	-2,7575788E-001	4,1117535E+000
3	0	9,355874629597296E+003	3,8359904E+000	-2,7575880E-001	4,1117492E+000
3	0	9,356874629585189E+003	3,8359919E+000	-2,7575871E-001	4,1117506E+000
3	0	9,357874629573082E+003	3,8359931E+000	-2,7575812E-001	4,1117511E+000
3	0	9,358874629560974E+003	3,8359811E+000	-2,7575108E-001	4,1117320E+000
3	0	9,359874629548867E+003	3,8359721E+000	-2,7574274E-001	4,1117148E+000
3	0	9,360874629536760E+003	3,8359611E+000	-2,7574453E-001	4,1117058E+000
3	0	9,361874629524653E+003	3,8359518E+000	-2,7573779E-001	4,1116896E+000
3	0	9,362874629512546E+003	3,8359478E+000	-2,7573723E-001	4,1116848E+000
3	0	9,363874629500438E+003	3,8359361E+000	-2,7571738E-001	4,1116533E+000
3	0	9,364874629488331E+003	3,8359337E+000	-2,7573007E-001	4,1116638E+000
3	0	9,365874629476224E+003	3,8359330E+000	-2,7572340E-001	4,1116562E+000
3	0	9,366874629464117E+003	3,8359299E+000	-2,7572373E-001	4,1116538E+000
3	0	9,367874629452010E+003	3,8359227E+000	-2,7572298E-001	4,1116457E+000
3	0	9,368874629439902E+003	3,8359139E+000	-2,7571994E-001	4,1116338E+000
3	0	9,369874629427795E+003	3,8359034E+000	-2,7571419E-001	4,1116176E+000
3	0	9,370874629415688E+003	3,8358986E+000	-2,7570927E-001	4,1116080E+000
3	0	9,371874629403581E+003	3,8358943E+000	-2,7569929E-001	4,1115937E+000
3	0	9,372874629391474E+003	3,8358889E+000	-2,7569634E-001	4,1115851E+000
3	0	9,373874629379367E+003	3,8358924E+000	-2,7569601E-001	4,1115885E+000
3	0	9,374874629367259E+003	3,8358889E+000	-2,7569336E-001	4,1115823E+000
3	0	9,375874629355152E+003	3,8358860E+000	-2,7569762E-001	4,1115837E+000
3	0	9,376874629343045E+003	3,8358810E+000	-2,7569926E-001	4,1115804E+000
3	0	9,377874629330938E+003	3,8358791E+000	-2,7569970E-001	4,1115789E+000
3	0	9,378874629318831E+003	3,8358688E+000	-2,7569503E-001	4,1115637E+000
3	0	9,379874629306723E+003	3,8358650E+000	-2,7569199E-001	4,1115570E+000
3	0	9,380874629294616E+003	3,8358655E+000	-2,7569285E-001	4,1115584E+000
3	0	9,381874629282509E+003	3,8358624E+000	-2,7568987E-001	4,1115522E+000
3	0	9,382874629270402E+003	3,8358557E+000	-2,7568057E-001	4,1115365E+000
3	0	9,383874629258295E+003	3,8358595E+000	-2,7567065E-001	4,1115303E+000
3	0	9,384874629246187E+003	3,8358536E+000	-2,7566746E-001	4,1115212E+000
3	0	9,385874629234080E+003	3,8358533E+000	-2,7566200E-001	4,1115155E+000
3	0	9,386874629221973E+003	3,8358419E+000	-2,7566096E-001	4,1115026E+000
3	0	9,387874629209866E+003	3,8358419E+000	-2,7566063E-001	4,1115026E+000
3	0	9,388874629197759E+003	3,8358450E+000	-2,7567407E-001	4,1115189E+000
3	0	9,389874629185651E+003	3,8358381E+000	-2,7567369E-001	4,1115117E+000
3	0	9,390874629173544E+003	3,8358278E+000	-2,7566740E-001	4,1114950E+000
3	0	9,391874629161437E+003	3,8358202E+000	-2,7566636E-001	4,1114864E+000
3	0	9,392874629149330E+003	3,8358126E+000	-2,7566370E-001	4,1114764E+000
3	0	9,393874629137223E+003	3,8358130E+000	-2,7566209E-001	4,1114750E+000
3	0	9,394874629125115E+003	3,8358185E+000	-2,7565432E-001	4,1114731E+000
3	0	9,395874629113008E+003	3,8358142E+000	-2,7565229E-001	4,1114664E+000
3	0	9,396874629100901E+003	3,8358073E+000	-2,7566257E-001	4,1114697E+000
3	0	9,397874629088794E+003	3,8358088E+000	-2,7566120E-001	4,1114697E+000
3	0	9,398874629076687E+003	3,8358068E+000	-2,7566883E-001	4,1114755E+000
3	0	9,399874629064579E+003	3,8357995E+000	-2,7566645E-001	4,1114659E+000
3	0	9,400874629052472E+003	3,8357890E+000	-2,7567038E-001	4,1114593E+000
3	0	9,401874629040365E+003	3,8357868E+000	-2,7566671E-001	4,1114535E+000
3	0	9,402874629028258E+003	3,8357849E+000	-2,7566597E-001	4,1114507E+000
3	0	9,403874629016151E+003	3,8357823E+000	-2,7566445E-001	4,1114469E+000
3	0	9,404874629004044E+003	3,8357849E+000	-2,7566829E-001	4,1114531E+000
3	0	9,405874628991936E+003	3,8357823E+000	-2,7566576E-001	4,1114483E+000
3	0	9,406874628979829E+003	3,8357844E+000	-2,7566445E-001	4,1114488E+000
3	0	9,407874628967722E+003	3,8357799E+000	-2,7566573E-001	4,1114454E+000
3	0	9,408874628955615E+003	3,8357854E+000	-2,7566665E-001	4,1114521E+000
3	0	9,409874628943508E+003	3,8357756E+000	-2,7566549E-001	4,1114411E+000
3	0	9,410874628931400E+003	3,8357744E+000	-2,7566200E-001	4,1114364E+000
3	0	9,411874628919293E+003	3,8357756E+000	-2,7565551E-001	4,1114311E+000
3	0	9,412874628907186E+003	3,8357849E+000	-2,7565780E-001	4,1114426E+000
3	0	9,413874628895079E+003	3,8357842E+000	-2,7566549E-001	4,1114497E+000
3	0	9,414874628882972E+003	3,8357806E+000	-2,7566510E-001	4,1114459E+000
3	0	9,415874628870864E+003	3,8357716E+000	-2,7565429E-001	4,1114259E+000
3	0	9,416874628858757E+003	3,8357670E+000	-2,7565780E-001	4,1114249E+000
3	0	9,417874628846650E+003	3,8357673E+000	-2,7566421E-001	4,1114316E+000
3	0	9,418874628834543E+003	3,8357697E+000	-2,7566797E-001	4,1114378E+000
3	0	9,419874628822436E+003	3,8357756E+000	-2,7567458E-001	4,1114502E+000
3	0	9,420874628810328E+003	3,8357661E+000	-2,7566493E-001	4,1114311E+000
3	0	9,421874628798221E+003	3,8357608E+000	-2,7566338E-001	4,1114244E+000
3	0	9,422874628786114E+003	3,8357553E+000	-2,7566198E-001	4,1114173E+000
3	0	9,423874628774007E+003	3,8357537E+000	-2,7566782E-001	4,1114216E+000
3	0	9,424874628761900E+003	3,8357451E+000	-2,7565944E-001	4,1114044E+000
3	0	9,425874628749792E+003	3,8357477E+000	-2,7566481E-001	4,1114125E+000
3	0	9,426874628737685E+003	3,8357439E+000	-2,7566749E-001	4,1114116E+000
3	0	9,427874628725578E+003	3,8357482E+000	-2,7566072E-001	4,1114087E+000
3	0	9,428874628713471E+003	3,8357499E+000	-2,7565810E-001	4,1114078E+000
3	0	9,429874628701364E+003	3,8357408E+000	-2,7565303E-001	4,1113939E+000
3	0	9,430874628689257E+003	3,8357396E+000	-2,7564919E-001	4,1113887E+000
3	0	9,431874628677149E+003	3,8357365E+000	-2,7565238E-001	4,1113887E+000
3	0	9,432874628665042E+003	3,8357372E+000	-2,7564895E-001	4,1113863E+000
3	0	9,433874628652935E+003	3,8357372E+000	-2,7564406E-001	4,1113815E+000
3	0	9,434874628640828E+003	3,8357322E+000	-2,7563801E-001	4,1113701E+000
3	0	9,435874628628721E+003	3,8357279E+000	-2,7563173E-001	4,1113596E+000
3	0	9,436874628616613E+003	3,8357284E+000	-2,7562758E-001	4,1113558E+000
3	0	9,437874628604506E+003	3,8357229E+000	-2,7562922E-001	4,1113520E+000
3	0	9,438874628592399E+003	3,8357177E+000	-2,7562028E-001	4,1113381E+000
3	0	9,439874628580292E+003	3,8357260E+000	-2,7563080E-001	4,1113567E+000
3	0	9,440874628568185E+003	3,8357213E+000	-2,7562675E-001	4,1113482E+000
3	0	9,441874628556077E+003	3,8357146E+000	-2,7563140E-001	4,1113458E+000
3	0	9,442874628543970E+003	3,8357084E+000	-2,7564067E-001	4,1113491E+000
3	0	9,443874628531863E+003	3,8357022E+000	-2,7563155E-001	4,1113338E+000
3	0	9,444874628519756E+003	3,8357003E+000	-2,7562502E-001	4,1113253E+000
3	0	9,445874628507649E+003	3,8356967E+000	-2,7562892E-001	4,1113257E+000
3	0	9,446874628495541E+003	3,8356919E+000	-2,7562413E-001	4,1113162E+000
3	0	9,447874628483434E+003	3,8356955E+000	-2,7561942E-001	4,1113148E+000
3	0	9,448874628471327E+003	3,8356993E+000	-2,7561718E-001	4,1113167E+000
3	0	9,449874628459220E+003	3,8356967E+000	-2,7561569E-001	4,1113124E+000
3	0	9,450874628447113E+003	3,8356967E+000	-2,7562314E-001	4,1113200E+000
3	0	9,451874628435005E+003	3,8356893E+000	-2,7562368E-001	4,1113129E+000
3	0	9,452874628422898E+003	3,8356931E+000	-2,7562314E-001	4,1113162E+000
3	0	9,453874628410791E+003	3,8356884E+000	-2,7562097E-001	4,1113095E+000
3	0	9,454874628398684E+003	3,8356926E+000	-2,7562466E-001	4,1113172E+000
3	0	9,455874628386577E+003	3,8356931E+000	-2,7561700E-001	4,1113100E+000
3	0	9,456874628374469E+003	3,8356905E+000	-2,7562138E-001	4,1113119E+000
3	0	9,457874628362362E+003	3,8356950E+000	-2,7562511E-001	4,1113200E+000
3	0	9,458874628350255E+003	3,8356969E+000	-2,7563024E-001	4,1113272E+000
3	0	9,459874628338148E+003	3,8356938E+000	-2,7562124E-001	4,1113153E+000
3	0	9,460874628326041E+003	3,8356893E+000	-2,7561000E-001	4,1112995E+000
3	0	9,461874628313934E+003	3,8356919E+000	-2,7560693E-001	4,1112990E+000
3	0	9,462874628301826E+003	3,8356900E+000	-2,7560377E-001	4,1112938E+000
3	0	9,463874628289719E+003	3,8356888E+000	-2,7560651E-001	4,1112952E+000
3	0	9,464874628277612E+003	3,8356833E+000	-2,7559954E-001	4,1112828E+000
3	0	9,465874628265505E+003	3,8356807E+000	-2,7559459E-001	4,1112752E+000
3	0	9,466874628253398E+003	3,8356779E+000	-2,7560163E-001	4,1112795E+000
3	0	9,467874628241290E+003	3,8356795E+000	-2,7560624E-001	4,1112857E+000
3	0	9,468874628229183E+003	3,8356776E+000	-2,7560341E-001	4,1112809E+000
3	0	9,469874628217076E+003	3,8356755E+000	-2,7560252E-001	4,1112781E+000
3	0	9,470874628204969E+003	3,8356686E+000	-2,7560845E-001	4,1112771E+000
3	0	9,471874628192862E+003	3,8356650E+000	-2,7559838E-001	4,1112633E+000
3	0	9,472874628180754E+003	3,8356678E+000	-2,7560490E-001	4,1112728E+000
3	0	9,473874628168647E+003	3,8356657E+000	-2,7561101E-001	4,1112766E+000
3	0	9,474874628156540E+003	3,8356690E+000	-2,7560878E-001	4,1112776E+000
3	0	9,475874628144433E+003	3,8356736E+000	-2,7561033E-001	4,1112838E+000
3	0	9,476874628132326E+003	3,8356767E+000	-2,7561161E-001	4,1112881E+000
3	0	9,477874628120218E+003	3,8356760E+000	-2,7561238E-001	4,1112885E+000
3	0	9,478874628108111E+003	3,8356674E+000	-2,7560824E-001	4,1112757E+000
3	0	9,479874628096004E+003	3,8356576E+000	-2,7561185E-001	4,1112695E+000
3	0	9,480874628083897E+003	3,8356593E+000	-2,7560323E-001	4,1112623E+000
3	0	9,481874628071790E+003	3,8356678E+000	-2,7559948E-001	4,1112671E+000
3	0	9,482874628059682E+003	3,8356743E+000	-2,7560291E-001	4,1112771E+000
3	0	9,483874628047575E+003	3,8356686E+000	-2,7559665E-001	4,1112652E+000
3	0	9,484874628035468E+003	3,8356657E+000	-2,7559498E-001	4,1112609E+000
3	0	9,485874628023361E+003	3,8356614E+000	-2,7559748E-001	4,1112590E+000
3	0	9,486874628011254E+003	3,8356650E+000	-2,7560401E-001	4,1112690E+000
3	0	9,487874627999146E+003	3,8356674E+000	-2,7560008E-001	4,1112676E+000
3	0	9,488874627987039E+003	3,8356600E+000	-2,7559972E-001	4,1112595E+000
3	0	9,489874627974932E+003	3,8356507E+000	-2,7560154E-001	4,1112523E+000
3	0	9,490874627962825E+003	3,8356545E+000	-2,7559927E-001	4,1112537E+000
3	0	9,491874627950718E+003	3,8356495E+000	-2,7560085E-001	4,1112504E+000
3	0	9,492874627938611E+003	3,8356416E+000	-2,7559596E-001	4,1112375E+000
3	0	9,493874627926503E+003	3,8356366E+000	-2,7559799E-001	4,1112347E+000
3	0	9,494874627914396E+003	3,8356435E+000	-2,7559096E-001	4,1112347E+000
3	0	9,495874627902289E+003	3,8356388E+000	-2,7559048E-001	4,1112294E+000
3	0	9,496874627890182E+003	3,8356466E+000	-2,7559301E-001	4,1112394E+000
3	0	9,497874627878075E+003	3,8356447E+000	-2,7560115E-001	4,1112461E+000
3	0	9,498874627865967E+003	3,8356473E+000	-2,7560139E-001	4,1112490E+000
3	0	9,499874627853860E+003	3,8356423E+000	-2,7559644E-001	4,1112390E+000
3	0	9,500874627841753E+003	3,8356366E+000	-2,7559072E-001	4,1112275E+000
3	0	9,501874627829646E+003	3,8356431E+000	-2,7559310E-001	4,1112361E+000
3	0	9,502874627817539E+003	3,8356354E+000	-2,7559480E-001	4,1112304E+000
3	0	9,503874627805431E+003	3,8356345E+000	-2,7560133E-001	4,1112356E+000
3	0	9,504874627793324E+003	3,8356314E+000	-2,7559009E-001	4,1112213E+000
3	0	9,505874627781217E+003	3,8356369E+000	-2,7559695E-001	4,1112337E+000
3	0	9,506874627769110E+003	3,8356318E+000	-2,7559701E-001	4,1112289E+000
3	0	9,507874627757003E+003	3,8356333E+000	-2,7559450E-001	4,1112280E+000
3	0	9,508874627744895E+003	3,8356380E+000	-2,7559352E-001	4,1112318E+000
3	0	9,509874627732788E+003	3,8356404E+000	-2,7560031E-001	4,1112409E+000
3	0	9,510874627720681E+003	3,8356435E+000	-2,7560422E-001	4,1112475E+000
3	0	9,511874627708574E+003	3,8356431E+000	-2,7559415E-001	4,1112370E+000
3	0	9,512874627696467E+003	3,8356376E+000	-2,7559122E-001	4,1112289E+000
3	0	9,513874627684359E+003	3,8356361E+000	-2,7559599E-001	4,1112323E+000
3	0	9,514874627672252E+003	3,8356357E+000	-2,7559546E-001	4,1112313E+000
3	0	9,515874627660145E+003	3,8356326E+000	-2,7559060E-001	4,1112232E+000
3	0	9,516874627648038E+003	3,8356397E+000	-2,7559131E-001	4,1112309E+000
3	0	9,517874627635931E+003	3,8356338E+000	-2,7559304E-001	4,1112270E+000
3	0	9,518874627623823E+003	3,8356264E+000	-2,7559468E-001	4,1112208E+000
3	0	9,519874627611716E+003	3,8356278E+000	-2,7559635E-001	4,1112242E+000
3	0	9,520874627599609E+003	3,8356283E+000	-2,7560201E-001	4,1112304E+000
3	0	9,521874627587502E+003	3,8356268E+000	-2,7559781E-001	4,1112247E+000
3	0	9,522874627575395E+003	3,8356245E+000	-2,7559382E-001	4,1112185E+000
3	0	9,523874627563288E+003	3,8356214E+000	-2,7559030E-001	4,1112118E+000
3	0	9,524874627551180E+003	3,8356278E+000	-2,7557856E-001	4,1112065E+000
3	0	9,525874627539073E+003	3,8356240E+000	-2,7558714E-001	4,1112113E+000
3	0	9,526874627526966E+003	3,8356278E+000	-2,7558753E-001	4,1112151E+000
3	0	9,527874627514859E+003	3,8356225E+000	-2,7558646E-001	4,1112089E+000
3	0	9,528874627502752E+003	3,8356183E+000	-2,7557528E-001	4,1111937E+000
3	0	9,529874627490644E+003	3,8356185E+000	-2,7557945E-001	4,1111979E+000
3	0	9,530874627478537E+003	3,8356147E+000	-2,7558652E-001	4,1112013E+000
3	0	9,531874627466430E+003	3,8356171E+000	-2,7559528E-001	4,1112123E+000
3	0	9,532874627454323E+003	3,8356161E+000	-2,7558675E-001	4,1112027E+000
3	0	9,533874627442216E+003	3,8356209E+000	-2,7558231E-001	4,1112032E+000
3	0	9,534874627430108E+003	3,8356116E+000	-2,7557886E-001	4,1111903E+000
3	0	9,535874627418001E+003	3,8356099E+000	-2,7558583E-001	4,1111956E+000
3	0	9,536874627405894E+003	3,8356044E+000	-2,7558121E-001	4,1111856E+000
3	0	9,537874627393787E+003	3,8356044E+000	-2,7559125E-001	4,1111956E+000
3	0	9,538874627381680E+003	3,8355970E+000	-2,7558860E-001	4,1111856E+000
3	0	9,539874627369572E+003	3,8356042E+000	-2,7559808E-001	4,1112022E+000
3	0	9,540874627357465E+003	3,8356013E+000	-2,7559054E-001	4,1111917E+000
3	0	9,541874627345358E+003	3,8355963E+000	-2,7559122E-001	4,1111875E+000
3	0	9,542874627333251E+003	3,8355901E+000	-2,7559203E-001	4,1111822E+000
3	0	9,543874627321144E+003	3,8355966E+000	-2,7559996E-001	4,1111965E+000
3	0	9,544874627309036E+003	3,8355966E+000	-2,7561143E-001	4,1112080E+000
3	0	9,545874627296929E+003	3,8355978E+000	-2,7561367E-001	4,1112113E+000
3	0	9,546874627284822E+003	3,8355978E+000	-2,7561450E-001	4,1112123E+000
3	0	9,547874627272715E+003	3,8355920E+000	-2,7561706E-001	4,1112089E+000
3	0	9,548874627260608E+003	3,8355885E+000	-2,7561665E-001	4,1112051E+000
3	0	9,549874627248500E+003	3,8355877E+000	-2,7561367E-001	4,1112013E+000
3	0	9,550874627236393E+003	3,8355868E+000	-2,7561355E-001	4,1112003E+000
3	0	9,551874627224286E+003	3,8355904E+000	-2,7561948E-001	4,1112099E+000
3	0	9,552874627212179E+003	3,8355947E+000	-2,7560833E-001	4,1112032E+000
3	0	9,553874627200072E+003	3,8355896E+000	-2,7560577E-001	4,1111956E+000
3	0	9,554874627187965E+003	3,8355944E+000	-2,7560577E-001	4,1112003E+000
3	0	9,555874627175857E+003	3,8355927E+000	-2,7560374E-001	4,1111965E+000
3	0	9,556874627163750E+003	3,8355963E+000	-2,7560070E-001	4,1111970E+000
3	0	9,557874627151643E+003	3,8355920E+000	-2,7559572E-001	4,1111879E+000
3	0	9,558874627139536E+003	3,8355966E+000	-2,7560571E-001	4,1112022E+000
3	0	9,559874627127429E+003	3,8355975E+000	-2,7560803E-001	4,1112056E+000
3	0	9,560874627115321E+003	3,8355923E+000	-2,7561450E-001	4,1112070E+000
3	0	9,561874627103214E+003	3,8355911E+000	-2,7560881E-001	4,1111999E+000
3	0	9,562874627091107E+003	3,8355947E+000	-2,7560976E-001	4,1112046E+000
3	0	9,563874627079000E+003	3,8355994E+000	-2,7561799E-001	4,1112175E+000
3	0	9,564874627066893E+003	3,8355947E+000	-2,7561751E-001	4,1112123E+000
3	0	9,565874627054785E+003	3,8356030E+000	-2,7561343E-001	4,1112165E+000
3	0	9,566874627042678E+003	3,8355987E+000	-2,7560988E-001	4,1112084E+000
3	0	9,567874627030571E+003	3,8355916E+000	-2,7560654E-001	4,1111979E+000
3	0	9,568874627018464E+003	3,8355806E+000	-2,7561018E-001	4,1111908E+000
3	0	9,569874627006357E+003	3,8355889E+000	-2,7561596E-001	4,1112051E+000
3	0	9,570874626994249E+003	3,8355842E+000	-2,7561471E-001	4,1111989E+000
3	0	9,571874626982142E+003	3,8355865E+000	-2,7560842E-001	4,1111951E+000
3	0	9,572874626970035E+003	3,8355792E+000	-2,7560759E-001	4,1111870E+000
3	0	9,573874626957928E+003	3,8355830E+000	-2,7561000E-001	4,1111932E+000
3	0	9,574874626945821E+003	3,8355861E+000	-2,7560523E-001	4,1111913E+000
3	0	9,575874626933713E+003	3,8355792E+000	-2,7559748E-001	4,1111765E+000
3	0	9,576874626921606E+003	3,8355854E+000	-2,7560288E-001	4,1111884E+000
3	0	9,577874626909499E+003	3,8355868E+000	-2,7560189E-001	4,1111889E+000
3	0	9,578874626897392E+003	3,8355842E+000	-2,7559835E-001	4,1111827E+000
3	0	9,579874626885285E+003	3,8355951E+000	-2,7559841E-001	4,1111937E+000
3	0	9,580874626873177E+003	3,8355896E+000	-2,7559441E-001	4,1111841E+000
3	0	9,581874626861070E+003	3,8355885E+000	-2,7559623E-001	4,1111846E+000
3	0	9,582874626848963E+003	3,8355854E+000	-2,7560055E-001	4,1111860E+000
3	0	9,583874626836856E+003	3,8355846E+000	-2,7560383E-001	4,1111884E+000
3	0	9,584874626824749E+003	3,8355823E+000	-2,7560693E-001	4,1111894E+000
3	0	9,585874626812642E+003	3,8355865E+000	-2,7560419E-001	4,1111908E+000
3	0	9,586874626800534E+003	3,8355806E+000	-2,7559951E-001	4,1111803E+000
3	0	9,587874626788427E+003	3,8355932E+000	-2,7560368E-001	4,1111970E+000
3	0	9,588874626776320E+003	3,8355947E+000	-2,7560490E-001	4,1111994E+000
3	0	9,589874626764213E+003	3,8355861E+000	-2,7559808E-001	4,1111841E+000
3	0	9,590874626752106E+003	3,8355927E+000	-2,7559876E-001	4,1111917E+000
3	0	9,591874626739998E+003	3,8356020E+000	-2,7559683E-001	4,1111989E+000
3	0	9,592874626727891E+003	3,8355927E+000	-2,7559879E-001	4,1111917E+000
3	0	9,593874626715784E+003	3,8355954E+000	-2,7560174E-001	4,1111970E+000
3	0	9,594874626703677E+003	3,8355911E+000	-2,7559406E-001	4,1111851E+000
3	0	9,595874626691570E+003	3,8355892E+000	-2,7558881E-001	4,1111779E+000
3	0	9,596874626679462E+003	3,8355904E+000	-2,7558249E-001	4,1111727E+000
3	0	9,597874626667355E+003	3,8355904E+000	-2,7559218E-001	4,1111827E+000
3	0	9,598874626655248E+003	3,8355966E+000	-2,7559194E-001	4,1111884E+000
3	0	9,599874626643141E+003	3,8355858E+000	-2,7558848E-001	4,1111741E+000
3	0	9,600874626631034E+003	3,8355849E+000	-2,7558631E-001	4,1111712E+000
3	0	9,601874626618926E+003	3,8355823E+000	-2,7559090E-001	4,1111732E+000
3	0	9,602874626606819E+003	3,8355811E+000	-2,7559206E-001	4,1111732E+000
3	0	9,603874626594712E+003	3,8355787E+000	-2,7558926E-001	4,1111679E+000
3	0	9,604874626582605E+003	3,8355787E+000	-2,7558973E-001	4,1111684E+000
3	0	9,605874626570498E+003	3,8355825E+000	-2,7559456E-001	4,1111770E+000
3	0	9,606874626558390E+003	3,8355892E+000	-2,7559456E-001	4,1111836E+000
3	0	9,607874626546283E+003	3,8355837E+000	-2,7560151E-001	4,1111851E+000
3	0	9,608874626534176E+003	3,8355794E+000	-2,7560404E-001	4,1111836E+000
3	0	9,609874626522069E+003	3,8355792E+000	-2,7560726E-001	4,1111865E+000
3	0	9,610874626509962E+003	3,8355763E+000	-2,7560943E-001	4,1111856E+000
3	0	9,611874626497854E+003	3,8355732E+000	-2,7560851E-001	4,1111817E+000
3	0	9,612874626485747E+003	3,8355725E+000	-2,7559900E-001	4,1111717E+000
3	0	9,613874626473640E+003	3,8355739E+000	-2,7559733E-001	4,1111712E+000
3	0	9,614874626461533E+003	3,8355646E+000	-2,7559581E-001	4,1111603E+000
3	0	9,615874626449426E+003	3,8355639E+000	-2,7559665E-001	4,1111608E+000
3	0	9,616874626437319E+003	3,8355665E+000	-2,7559686E-001	4,1111631E+000
3	0	9,617874626425211E+003	3,8355701E+000	-2,7558735E-001	4,1111574E+000
3	0	9,618874626413104E+003	3,8355670E+000	-2,7558470E-001	4,1111517E+000
3	0	9,619874626400997E+003	3,8355651E+000	-2,7558234E-001	4,1111474E+000
3	0	9,620874626388890E+003	3,8355610E+000	-2,7558559E-001	4,1111465E+000
3	0	9,621874626376783E+003	3,8355608E+000	-2,7558398E-001	4,1111450E+000
3	0	9,622874626364675E+003	3,8355577E+000	-2,7558085E-001	4,1111383E+000
3	0	9,623874626352568E+003	3,8355553E+000	-2,7558371E-001	4,1111388E+000
3	0	9,624874626340461E+003	3,8355572E+000	-2,7558401E-001	4,1111412E+000
3	0	9,625874626328354E+003	3,8355560E+000	-2,7558839E-001	4,1111445E+000
3	0	9,626874626316247E+003	3,8355517E+000	-2,7559310E-001	4,1111450E+000
3	0	9,627874626304139E+003	3,8355620E+000	-2,7558872E-001	4,1111507E+000
3	0	9,628874626292032E+003	3,8355622E+000	-2,7557680E-001	4,1111388E+000
3	0	9,629874626279925E+003	3,8355501E+000	-2,7558360E-001	4,1111336E+000
3	0	9,630874626267818E+003	3,8355639E+000	-2,7558950E-001	4,1111536E+000
3	0	9,631874626255711E+003	3,8355651E+000	-2,7558371E-001	4,1111488E+000
3	0	9,632874626243603E+003	3,8355632E+000	-2,7558696E-001	4,1111503E+000
3	0	9,633874626231496E+003	3,8355615E+000	-2,7558884E-001	4,1111503E+000
3	0	9,634874626219389E+003	3,8355548E+000	-2,7558559E-001	4,1111403E+000
3	0	9,635874626207282E+003	3,8355529E+000	-2,7558458E-001	4,1111374E+000
3	0	9,636874626195175E+003	3,8355498E+000	-2,7557531E-001	4,1111250E+000
3	0	9,637874626183067E+003	3,8355458E+000	-2,7558410E-001	4,1111298E+000
3	0	9,638874626170960E+003	3,8355458E+000	-2,7558625E-001	4,1111321E+000
3	0	9,639874626158853E+003	3,8355501E+000	-2,7559030E-001	4,1111403E+000
3	0	9,640874626146746E+003	3,8355548E+000	-2,7559793E-001	4,1111526E+000
3	0	9,641874626134639E+003	3,8355572E+000	-2,7560002E-001	4,1111574E+000
3	0	9,642874626122531E+003	3,8355536E+000	-2,7560622E-001	4,1111598E+000
3	0	9,643874626110424E+003	3,8355525E+000	-2,7559951E-001	4,1111522E+000
3	0	9,644874626098317E+003	3,8355579E+000	-2,7559647E-001	4,1111546E+000
3	0	9,645874626086210E+003	3,8355587E+000	-2,7559930E-001	4,1111579E+000
3	0	9,646874626074103E+003	3,8355596E+000	-2,7559912E-001	4,1111588E+000
3	0	9,647874626061996E+003	3,8355653E+000	-2,7560189E-001	4,1111674E+000
3	0	9,648874626049888E+003	3,8355663E+000	-2,7560180E-001	4,1111679E+000
3	0	9,649874626037781E+003	3,8355684E+000	-2,7560651E-001	4,1111751E+000
3	0	9,650874626025674E+003	3,8355663E+000	-2,7561361E-001	4,1111798E+000
3	0	9,651874626013567E+003	3,8355727E+000	-2,7561054E-001	4,1111832E+000
3	0	9,652874626001460E+003	3,8355641E+000	-2,7560693E-001	4,1111712E+000
3	0	9,653874625989352E+003	3,8355608E+000	-2,7560419E-001	4,1111650E+000
3	0	9,654874625977245E+003	3,8355608E+000	-2,7560818E-001	4,1111689E+000
3	0	9,655874625965138E+003	3,8355596E+000	-2,7560496E-001	4,1111646E+000
3	0	9,656874625953031E+003	3,8355598E+000	-2,7560532E-001	4,1111650E+000
3	0	9,657874625940924E+003	3,8355658E+000	-2,7559870E-001	4,1111646E+000
3	0	9,658874625928816E+003	3,8355541E+000	-2,7561426E-001	4,1111684E+000
3	0	9,659874625916709E+003	3,8355529E+000	-2,7560890E-001	4,1111617E+000
3	0	9,660874625904602E+003	3,8355486E+000	-2,7560273E-001	4,1111512E+000
3	0	9,661874625892495E+003	3,8355541E+000	-2,7561027E-001	4,1111646E+000
3	0	9,662874625880388E+003	3,8355584E+000	-2,7560654E-001	4,1111650E+000
3	0	9,663874625868280E+003	3,8355572E+000	-2,7560842E-001	4,1111655E+000
3	0	9,664874625856173E+003	3,8355541E+000	-2,7561924E-001	4,1111732E+000
3	0	9,665874625844066E+003	3,8355534E+000	-2,7561989E-001	4,1111732E+000
3	0	9,666874625831959E+003	3,8355536E+000	-2,7561247E-001	4,1111660E+000
3	0	9,667874625819852E+003	3,8355482E+000	-2,7560943E-001	4,1111574E+000
3	0	9,668874625807744E+003	3,8355529E+000	-2,7562496E-001	4,1111779E+000
3	0	9,669874625795637E+003	3,8355565E+000	-2,7562696E-001	4,1111836E+000
3	0	9,670874625783530E+003	3,8355534E+000	-2,7562261E-001	4,1111760E+000
3	0	9,671874625771423E+003	3,8355501E+000	-2,7562892E-001	4,1111789E+000
3	0	9,672874625759316E+003	3,8355455E+000	-2,7562886E-001	4,1111746E+000
3	0	9,673874625747208E+003	3,8355424E+000	-2,7562255E-001	4,1111650E+000
3	0	9,674874625735101E+003	3,8355427E+000	-2,7562246E-001	4,1111650E+000
3	0	9,675874625722994E+003	3,8355513E+000	-2,7561975E-001	4,1111708E+000
3	0	9,676874625710887E+003	3,8355510E+000	-2,7562192E-001	4,1111732E+000
3	0	9,677874625698780E+003	3,8355427E+000	-2,7562141E-001	4,1111641E+000
3	0	9,678874625686673E+003	3,8355470E+000	-2,7561629E-001	4,1111631E+000
3	0	9,679874625674565E+003	3,8355470E+000	-2,7560902E-001	4,1111560E+000
3	0	9,680874625662458E+003	3,8355455E+000	-2,7560127E-001	4,1111469E+000
3	0	9,681874625650351E+003	3,8355513E+000	-2,7559718E-001	4,1111484E+000
3	0	9,682874625638244E+003	3,8355572E+000	-2,7560952E-001	4,1111670E+000
3	0	9,683874625626137E+003	3,8355458E+000	-2,7561143E-001	4,1111574E+000
3	0	9,684874625614029E+003	3,8355427E+000	-2,7561152E-001	4,1111541E+000
3	0	9,685874625601922E+003	3,8355463E+000	-2,7561414E-001	4,1111603E+000
3	0	9,686874625589815E+003	3,8355486E+000	-2,7560535E-001	4,1111541E+000
3	0	9,687874625577708E+003	3,8355424E+000	-2,7560720E-001	4,1111498E+000
3	0	9,688874625565601E+003	3,8355448E+000	-2,7560356E-001	4,1111484E+000
3	0	9,689874625553493E+003	3,8355482E+000	-2,7560094E-001	4,1111493E+000
3	0	9,690874625541386E+003	3,8355494E+000	-2,7560052E-001	4,1111498E+000
3	0	9,691874625529279E+003	3,8355482E+000	-2,7559820E-001	4,1111465E+000
3	0	9,692874625517172E+003	3,8355498E+000	-2,7559248E-001	4,1111422E+000
3	0	9,693874625505065E+003	3,8355491E+000	-2,7559498E-001	4,1111441E+000
3	0	9,694874625492957E+003	3,8355455E+000	-2,7559316E-001	4,1111388E+000
3	0	9,695874625480850E+003	3,8355401E+000	-2,7558854E-001	4,1111288E+000
3	0	9,696874625468743E+003	3,8355491E+000	-2,7559760E-001	4,1111469E+000
3	0	9,697874625456636E+003	3,8355439E+000	-2,7559328E-001	4,1111374E+000
3	0	9,698874625444529E+003	3,8355415E+000	-2,7559415E-001	4,1111355E+000
3	0	9,699874625432421E+003	3,8355510E+000	-2,7559760E-001	4,1111488E+000
3	0	9,700874625420314E+003	3,8355567E+000	-2,7559578E-001	4,1111526E+000
3	0	9,701874625408207E+003	3,8355541E+000	-2,7560395E-001	4,1111579E+000
3	0	9,702874625396100E+003	3,8355572E+000	-2,7560329E-001	4,1111603E+000
3	0	9,703874625383993E+003	3,8355510E+000	-2,7560294E-001	4,1111541E+000
3	0	9,704874625371885E+003	3,8355517E+000	-2,7558520E-001	4,1111369E+000
3	0	9,705874625359778E+003	3,8355529E+000	-2,7559438E-001	4,1111474E+000
3	0	9,706874625347671E+003	3,8355463E+000	-2,7559248E-001	4,1111388E+000
3	0	9,707874625335564E+003	3,8355439E+000	-2,7560416E-001	4,1111479E+000
3	0	9,708874625323457E+003	3,8355443E+000	-2,7559364E-001	4,1111379E+000
3	0	9,709874625311350E+003	3,8355396E+000	-2,7559891E-001	4,1111383E+000
3	0	9,710874625299242E+003	3,8355339E+000	-2,7559271E-001	4,1111264E+000
3	0	9,711874625287135E+003	3,8355329E+000	-2,7559221E-001	4,1111250E+000
3	0	9,712874625275028E+003	3,8355310E+000	-2,7558884E-001	4,1111197E+000
3	0	9,713874625262921E+003	3,8355298E+000	-2,7559829E-001	4,1111279E+000
3	0	9,714874625250814E+003	3,8355303E+000	-2,7560872E-001	4,1111388E+000
3	0	9,715874625238706E+003	3,8355296E+000	-2,7560166E-001	4,1111312E+000
3	0	9,716874625226599E+003	3,8355308E+000	-2,7561173E-001	4,1111426E+000
3	0	9,717874625214492E+003	3,8355365E+000	-2,7561328E-001	4,1111498E+000
3	0	9,718874625202385E+003	3,8355389E+000	-2,7561516E-001	4,1111541E+000
3	0	9,719874625190278E+003	3,8355350E+000	-2,7561748E-001	4,1111526E+000
3	0	9,720874625178170E+003	3,8355360E+000	-2,7561578E-001	4,1111517E+000
3	0	9,721874625166063E+003	3,8355372E+000	-2,7561596E-001	4,1111531E+000
3	0	9,722874625153956E+003	3,8355389E+000	-2,7561814E-001	4,1111569E+000
3	0	9,723874625141849E+003	3,8355377E+000	-2,7563187E-001	4,1111693E+000
3	0	9,724874625129742E+003	3,8355381E+000	-2,7562842E-001	4,1111665E+000
3	0	9,725874625117634E+003	3,8355491E+000	-2,7563539E-001	4,1111846E+000
3	0	9,726874625105527E+003	3,8355479E+000	-2,7563241E-001	4,1111803E+000
3	0	9,727874625093420E+003	3,8355470E+000	-2,7563325E-001	4,1111803E+000
3	0	9,728874625081313E+003	3,8355501E+000	-2,7563146E-001	4,1111817E+000
3	0	9,729874625069206E+003	3,8355513E+000	-2,7562946E-001	4,1111808E+000
3	0	9,730874625057098E+003	3,8355556E+000	-2,7563643E-001	4,1111917E+000
3	0	9,731874625044991E+003	3,8355584E+000	-2,7563244E-001	4,1111908E+000
3	0	9,732874625032884E+003	3,8355572E+000	-2,7564177E-001	4,1111989E+000
3	0	9,733874625020777E+003	3,8355534E+000	-2,7564189E-001	4,1111951E+000
3	0	9,734874625008670E+003	3,8355513E+000	-2,7564189E-001	4,1111932E+000
3	0	9,735874624996562E+003	3,8355455E+000	-2,7564162E-001	4,1111870E+000
3	0	9,736874624984455E+003	3,8355389E+000	-2,7563497E-001	4,1111736E+000
3	0	9,737874624972348E+003	3,8355408E+000	-2,7564093E-001	4,1111817E+000
3	0	9,738874624960241E+003	3,8355517E+000	-2,7564234E-001	4,1111941E+000
3	0	9,739874624948134E+003	3,8355467E+000	-2,7564406E-001	4,1111908E+000
3	0	9,740874624936027E+003	3,8355432E+000	-2,7564418E-001	4,1111875E+000
3	0	9,741874624923919E+003	3,8355424E+000	-2,7563345E-001	4,1111760E+000
3	0	9,742874624911812E+003	3,8355403E+000	-2,7563408E-001	4,1111746E+000
3	0	9,743874624899705E+003	3,8355389E+000	-2,7564311E-001	4,1111822E+000
3	0	9,744874624887598E+003	3,8355286E+000	-2,7564216E-001	4,1111708E+000
3	0	9,745874624875491E+003	3,8355298E+000	-2,7563784E-001	4,1111674E+000
3	0	9,746874624863383E+003	3,8355327E+000	-2,7563778E-001	4,1111703E+000
3	0	9,747874624851276E+003	3,8355308E+000	-2,7563927E-001	4,1111698E+000
3	0	9,748874624839169E+003	3,8355365E+000	-2,7563894E-001	4,1111755E+000
3	0	9,749874624827062E+003	3,8355393E+000	-2,7563354E-001	4,1111727E+000
3	0	9,750874624814955E+003	3,8355353E+000	-2,7563637E-001	4,1111717E+000
3	0	9,751874624802847E+003	3,8355384E+000	-2,7564391E-001	4,1111822E+000
3	0	9,752874624790740E+003	3,8355389E+000	-2,7563921E-001	4,1111779E+000
3	0	9,753874624778633E+003	3,8355393E+000	-2,7564064E-001	4,1111798E+000
3	0	9,754874624766526E+003	3,8355384E+000	-2,7564481E-001	4,1111832E+000
3	0	9,755874624754419E+003	3,8355393E+000	-2,7562881E-001	4,1111679E+000
3	0	9,756874624742311E+003	3,8355403E+000	-2,7563494E-001	4,1111751E+000
3	0	9,757874624730204E+003	3,8355384E+000	-2,7563348E-001	4,1111717E+000
3	0	9,758874624718097E+003	3,8355339E+000	-2,7563754E-001	4,1111712E+000
3	0	9,759874624705990E+003	3,8355365E+000	-2,7564135E-001	4,1111779E+000
3	0	9,760874624693883E+003	3,8355365E+000	-2,7564427E-001	4,1111808E+000
3	0	9,761874624681775E+003	3,8355432E+000	-2,7564663E-001	4,1111898E+000
3	0	9,762874624669668E+003	3,8355463E+000	-2,7564278E-001	4,1111889E+000
3	0	9,763874624657561E+003	3,8355436E+000	-2,7563339E-001	4,1111770E+000
3	0	9,764874624645454E+003	3,8355360E+000	-2,7562866E-001	4,1111646E+000
3	0	9,765874624633347E+003	3,8355334E+000	-2,7563486E-001	4,1111684E+000
3	0	9,766874624621239E+003	3,8355329E+000	-2,7564043E-001	4,1111732E+000
3	0	9,767874624609132E+003	3,8355296E+000	-2,7564597E-001	4,1111755E+000
3	0	9,768874624597025E+003	3,8355327E+000	-2,7564541E-001	4,1111779E+000
3	0	9,769874624584918E+003	3,8355370E+000	-2,7563787E-001	4,1111746E+000
3	0	9,770874624572811E+003	3,8355286E+000	-2,7564076E-001	4,1111693E+000
3	0	9,771874624560704E+003	3,8355262E+000	-2,7563691E-001	4,1111631E+000
3	0	9,772874624548596E+003	3,8355274E+000	-2,7562690E-001	4,1111546E+000
3	0	9,773874624536489E+003	3,8355308E+000	-2,7562881E-001	4,1111593E+000
3	0	9,774874624524382E+003	3,8355350E+000	-2,7562934E-001	4,1111646E+000
3	0	9,775874624512275E+003	3,8355315E+000	-2,7563581E-001	4,1111674E+000
3	0	9,776874624500168E+003	3,8355370E+000	-2,7563402E-001	4,1111708E+000
3	0	9,777874624488060E+003	3,8355384E+000	-2,7562946E-001	4,1111679E+000
3	0	9,778874624475953E+003	3,8355322E+000	-2,7563313E-001	4,1111655E+000
3	0	9,779874624463846E+003	3,8355372E+000	-2,7562356E-001	4,1111608E+000
3	0	9,780874624451739E+003	3,8355384E+000	-2,7561745E-001	4,1111560E+000
3	0	9,781874624439632E+003	3,8355424E+000	-2,7562064E-001	4,1111631E+000
3	0	9,782874624427524E+003	3,8355412E+000	-2,7562487E-001	4,1111660E+000
3	0	9,783874624415417E+003	3,8355381E+000	-2,7561551E-001	4,1111536E+000
3	0	9,784874624403310E+003	3,8355427E+000	-2,7561742E-001	4,1111603E+000
3	0	9,785874624391203E+003	3,8355432E+000	-2,7561164E-001	4,1111546E+000
3	0	9,786874624379096E+003	3,8355334E+000	-2,7561992E-001	4,1111531E+000
3	0	9,787874624366988E+003	3,8355303E+000	-2,7562705E-001	4,1111574E+000
3	0	9,788874624354881E+003	3,8355327E+000	-2,7562341E-001	4,1111560E+000
3	0	9,789874624342774E+003	3,8355286E+000	-2,7562559E-001	4,1111541E+000
3	0	9,790874624330667E+003	3,8355327E+000	-2,7561808E-001	4,1111507E+000
3	0	9,791874624318560E+003	3,8355296E+000	-2,7560890E-001	4,1111383E+000
3	0	9,792874624306452E+003	3,8355248E+000	-2,7560633E-001	4,1111312E+000
3	0	9,793874624294345E+003	3,8355286E+000	-2,7559930E-001	4,1111279E+000
3	0	9,794874624282238E+003	3,8355334E+000	-2,7560455E-001	4,1111379E+000
3	0	9,795874624270131E+003	3,8355310E+000	-2,7559829E-001	4,1111293E+000
3	0	9,796874624258024E+003	3,8355353E+000	-2,7560097E-001	4,1111364E+000
3	0	9,797874624245916E+003	3,8355358E+000	-2,7560842E-001	4,1111441E+000
3	0	9,798874624233809E+003	3,8355284E+000	-2,7560738E-001	4,1111360E+000
3	0	9,799874624221702E+003	3,8355248E+000	-2,7559099E-001	4,1111159E+000
3	0	9,800874624209595E+003	3,8355212E+000	-2,7559477E-001	4,1111159E+000
3	0	9,801874624197488E+003	3,8355284E+000	-2,7559033E-001	4,1111188E+000
3	0	9,802874624185381E+003	3,8355260E+000	-2,7559587E-001	4,1111217E+000
3	0	9,803874624173273E+003	3,8355260E+000	-2,7558559E-001	4,1111116E+000
3	0	9,804874624161166E+003	3,8355279E+000	-2,7558336E-001	4,1111112E+000
3	0	9,805874624149059E+003	3,8355329E+000	-2,7559248E-001	4,1111255E+000
3	0	9,806874624136952E+003	3,8355298E+000	-2,7558261E-001	4,1111126E+000
3	0	9,807874624124845E+003	3,8355303E+000	-2,7558613E-001	4,1111164E+000
3	0	9,808874624112737E+003	3,8355298E+000	-2,7559590E-001	4,1111259E+000
3	0	9,809874624100630E+003	3,8355284E+000	-2,7560070E-001	4,1111293E+000
3	0	9,810874624088523E+003	3,8355243E+000	-2,7560335E-001	4,1111279E+000
3	0	9,811874624076416E+003	3,8355181E+000	-2,7559674E-001	4,1111150E+000
3	0	9,812874624064309E+003	3,8355205E+000	-2,7559337E-001	4,1111140E+000
3	0	9,813874624052201E+003	3,8355210E+000	-2,7559519E-001	4,1111164E+000
3	0	9,814874624040094E+003	3,8355224E+000	-2,7559409E-001	4,1111164E+000
3	0	9,815874624027987E+003	3,8355210E+000	-2,7559796E-001	4,1111188E+000
3	0	9,816874624015880E+003	3,8355212E+000	-2,7559623E-001	4,1111174E+000
3	0	9,817874624003773E+003	3,8355219E+000	-2,7559432E-001	4,1111164E+000
3	0	9,818874623991665E+003	3,8355291E+000	-2,7560091E-001	4,1111298E+000
3	0	9,819874623979558E+003	3,8355217E+000	-2,7559569E-001	4,1111174E+000
3	0	9,820874623967451E+003	3,8355157E+000	-2,7559325E-001	4,1111088E+000
3	0	9,821874623955344E+003	3,8355162E+000	-2,7559578E-001	4,1111121E+000
3	0	9,822874623943237E+003	3,8355143E+000	-2,7559695E-001	4,1111112E+000
3	0	9,823874623931129E+003	3,8355091E+000	-2,7559951E-001	4,1111088E+000
3	0	9,824874623919022E+003	3,8354993E+000	-2,7559766E-001	4,1110969E+000
3	0	9,825874623906915E+003	3,8354912E+000	-2,7559930E-001	4,1110907E+000
3	0	9,826874623894808E+003	3,8354895E+000	-2,7558997E-001	4,1110797E+000
3	0	9,827874623882701E+003	3,8354943E+000	-2,7558956E-001	4,1110840E+000
3	0	9,828874623870594E+003	3,8355010E+000	-2,7560070E-001	4,1111016E+000
3	0	9,829874623858486E+003	3,8355029E+000	-2,7559802E-001	4,1111007E+000
3	0	9,830874623846379E+003	3,8355029E+000	-2,7559546E-001	4,1110983E+000
3	0	9,831874623834272E+003	3,8355026E+000	-2,7559328E-001	4,1110959E+000
3	0	9,832874623822165E+003	3,8355036E+000	-2,7559826E-001	4,1111016E+000
3	0	9,833874623810058E+003	3,8355072E+000	-2,7559999E-001	4,1111073E+000
3	0	9,834874623797950E+003	3,8355069E+000	-2,7559802E-001	4,1111050E+000
3	0	9,835874623785843E+003	3,8355124E+000	-2,7559018E-001	4,1111026E+000
3	0	9,836874623773736E+003	3,8355072E+000	-2,7557561E-001	4,1110826E+000
3	0	9,837874623761629E+003	3,8355076E+000	-2,7557632E-001	4,1110840E+000
3	0	9,838874623749522E+003	3,8355048E+000	-2,7557868E-001	4,1110835E+000
3	0	9,839874623737414E+003	3,8355041E+000	-2,7558202E-001	4,1110859E+000
3	0	9,840874623725307E+003	3,8354955E+000	-2,7558979E-001	4,1110854E+000
3	0	9,841874623713200E+003	3,8354967E+000	-2,7559340E-001	4,1110902E+000
3	0	9,842874623701093E+003	3,8354979E+000	-2,7559739E-001	4,1110954E+000
3	0	9,843874623688986E+003	3,8355029E+000	-2,7558434E-001	4,1110873E+000
3	0	9,844874623676878E+003	3,8354990E+000	-2,7557763E-001	4,1110768E+000
3	0	9,845874623664771E+003	3,8355002E+000	-2,7558139E-001	4,1110816E+000
3	0	9,846874623652664E+003	3,8354950E+000	-2,7557287E-001	4,1110678E+000
3	0	9,847874623640557E+003	3,8355002E+000	-2,7557978E-001	4,1110802E+000
3	0	9,848874623628450E+003	3,8355052E+000	-2,7558175E-001	4,1110868E+000
3	0	9,849874623616342E+003	3,8355060E+000	-2,7558008E-001	4,1110859E+000
3	0	9,850874623604235E+003	3,8355052E+000	-2,7558637E-001	4,1110916E+000
3	0	9,851874623592128E+003	3,8355045E+000	-2,7558857E-001	4,1110930E+000
3	0	9,852874623580021E+003	3,8355021E+000	-2,7559209E-001	4,1110945E+000
3	0	9,853874623567914E+003	3,8355052E+000	-2,7559626E-001	4,1111016E+000
3	0	9,854874623555806E+003	3,8355021E+000	-2,7559003E-001	4,1110921E+000
3	0	9,855874623543699E+003	3,8354998E+000	-2,7558768E-001	4,1110873E+000
3	0	9,856874623531592E+003	3,8355052E+000	-2,7558771E-001	4,1110930E+000
3	0	9,857874623519485E+003	3,8355083E+000	-2,7559024E-001	4,1110988E+000
3	0	9,858874623507378E+003	3,8355088E+000	-2,7559027E-001	4,1110992E+000
3	0	9,859874623495271E+003	3,8355114E+000	-2,7559009E-001	4,1111016E+000
3	0	9,860874623483163E+003	3,8355138E+000	-2,7560395E-001	4,1111178E+000
3	0	9,861874623471056E+003	3,8355107E+000	-2,7560991E-001	4,1111207E+000
3	0	9,862874623458949E+003	3,8355072E+000	-2,7560860E-001	4,1111159E+000
3	0	9,863874623446842E+003	3,8355079E+000	-2,7560261E-001	4,1111107E+000
3	0	9,864874623434735E+003	3,8355057E+000	-2,7559859E-001	4,1111045E+000
3	0	9,865874623422627E+003	3,8355060E+000	-2,7559748E-001	4,1111035E+000
3	0	9,866874623410520E+003	3,8355041E+000	-2,7559471E-001	4,1110988E+000
3	0	9,867874623398413E+003	3,8355021E+000	-2,7559373E-001	4,1110959E+000
3	0	9,868874623386306E+003	3,8355103E+000	-2,7559906E-001	4,1111093E+000
3	0	9,869874623374199E+003	3,8355057E+000	-2,7559021E-001	4,1110959E+000
3	0	9,870874623362091E+003	3,8355100E+000	-2,7558881E-001	4,1110988E+000
3	0	9,871874623349984E+003	3,8355045E+000	-2,7557769E-001	4,1110821E+000
3	0	9,872874623337877E+003	3,8355010E+000	-2,7559465E-001	4,1110954E+000
3	0	9,873874623325770E+003	3,8355026E+000	-2,7558586E-001	4,1110883E+000
3	0	9,874874623313663E+003	3,8355083E+000	-2,7559695E-001	4,1111054E+000
3	0	9,875874623301555E+003	3,8355060E+000	-2,7561021E-001	4,1111164E+000
3	0	9,876874623289448E+003	3,8355010E+000	-2,7560753E-001	4,1111083E+000
3	0	9,877874623277341E+003	3,8354912E+000	-2,7560908E-001	4,1111002E+000
3	0	9,878874623265234E+003	3,8355021E+000	-2,7561361E-001	4,1111159E+000
3	0	9,879874623253127E+003	3,8355057E+000	-2,7561015E-001	4,1111159E+000
3	0	9,880874623241019E+003	3,8354936E+000	-2,7560595E-001	4,1110997E+000
3	0	9,881874623228912E+003	3,8354876E+000	-2,7561387E-001	4,1111016E+000
3	0	9,882874623216805E+003	3,8354886E+000	-2,7560645E-001	4,1110950E+000
3	0	9,883874623204698E+003	3,8354857E+000	-2,7561098E-001	4,1110969E+000
3	0	9,884874623192591E+003	3,8354788E+000	-2,7561232E-001	4,1110911E+000
3	0	9,885874623180483E+003	3,8354850E+000	-2,7561456E-001	4,1110997E+000
3	0	9,886874623168376E+003	3,8354888E+000	-2,7561551E-001	4,1111045E+000
3	0	9,887874623156269E+003	3,8354821E+000	-2,7561936E-001	4,1111016E+000
3	0	9,888874623144162E+003	3,8354819E+000	-2,7562290E-001	4,1111050E+000
3	0	9,889874623132055E+003	3,8354850E+000	-2,7561447E-001	4,1110992E+000
3	0	9,890874623119948E+003	3,8354864E+000	-2,7561301E-001	4,1110992E+000
3	0	9,891874623107840E+003	3,8354874E+000	-2,7560773E-001	4,1110950E+000
3	0	9,892874623095733E+003	3,8354852E+000	-2,7560726E-001	4,1110926E+000
3	0	9,893874623083626E+003	3,8354888E+000	-2,7561125E-001	4,1111002E+000
3	0	9,894874623071519E+003	3,8354924E+000	-2,7561516E-001	4,1111073E+000
3	0	9,895874623059412E+003	3,8355005E+000	-2,7561060E-001	4,1111112E+000
3	0	9,896874623047304E+003	3,8355033E+000	-2,7561092E-001	4,1111145E+000
3	0	9,897874623035197E+003	3,8355026E+000	-2,7562383E-001	4,1111264E+000
3	0	9,898874623023090E+003	3,8355005E+000	-2,7562553E-001	4,1111259E+000
3	0	9,899874623010983E+003	3,8354974E+000	-2,7562782E-001	4,1111250E+000
3	0	9,900874622998876E+003	3,8354959E+000	-2,7562943E-001	4,1111255E+000
3	0	9,901874622986768E+003	3,8355014E+000	-2,7562502E-001	4,1111264E+000
3	0	9,902874622974661E+003	3,8354974E+000	-2,7563402E-001	4,1111312E+000
3	0	9,903874622962554E+003	3,8354917E+000	-2,7562344E-001	4,1111150E+000
3	0	9,904874622950447E+003	3,8354852E+000	-2,7562091E-001	4,1111059E+000
3	0	9,905874622938340E+003	3,8354809E+000	-2,7562284E-001	4,1111040E+000
3	0	9,906874622926232E+003	3,8354874E+000	-2,7563027E-001	4,1111178E+000
3	0	9,907874622914125E+003	3,8354881E+000	-2,7562439E-001	4,1111126E+000
3	0	9,908874622902018E+003	3,8354943E+000	-2,7562100E-001	4,1111155E+000
3	0	9,909874622889911E+003	3,8354895E+000	-2,7562115E-001	4,1111107E+000
3	0	9,910874622877804E+003	3,8354852E+000	-2,7561909E-001	4,1111045E+000
3	0	9,911874622865696E+003	3,8354845E+000	-2,7561459E-001	4,1110992E+000
3	0	9,912874622853589E+003	3,8354821E+000	-2,7560562E-001	4,1110878E+000
3	0	9,913874622841482E+003	3,8354826E+000	-2,7560827E-001	4,1110907E+000
3	0	9,914874622829375E+003	3,8354821E+000	-2,7560493E-001	4,1110868E+000
3	0	9,915874622817268E+003	3,8354783E+000	-2,7561158E-001	4,1110897E+000
3	0	9,916874622805160E+003	3,8354833E+000	-2,7560359E-001	4,1110868E+000
3	0	9,917874622793053E+003	3,8354709E+000	-2,7561736E-001	4,1110883E+000
3	0	9,918874622780946E+003	3,8354740E+000	-2,7560407E-001	4,1110783E+000
3	0	9,919874622768839E+003	3,8354790E+000	-2,7560464E-001	4,1110835E+000
3	0	9,920874622756732E+003	3,8354845E+000	-2,7561232E-001	4,1110969E+000
3	0	9,921874622744625E+003	3,8354802E+000	-2,7560979E-001	4,1110902E+000
3	0	9,922874622732517E+003	3,8354733E+000	-2,7561235E-001	4,1110859E+000
3	0	9,923874622720410E+003	3,8354733E+000	-2,7560747E-001	4,1110806E+000
3	0	9,924874622708303E+003	3,8354733E+000	-2,7560154E-001	4,1110749E+000
3	0	9,925874622696196E+003	3,8354735E+000	-2,7559963E-001	4,1110730E+000
3	0	9,926874622684089E+003	3,8354704E+000	-2,7559465E-001	4,1110649E+000
3	0	9,927874622671981E+003	3,8354697E+000	-2,7559784E-001	4,1110678E+000
3	0	9,928874622659874E+003	3,8354795E+000	-2,7560097E-001	4,1110806E+000
3	0	9,929874622647767E+003	3,8354821E+000	-2,7559787E-001	4,1110802E+000
3	0	9,930874622635660E+003	3,8354747E+000	-2,7560651E-001	4,1110811E+000
3	0	9,931874622623553E+003	3,8354721E+000	-2,7559716E-001	4,1110692E+000
3	0	9,932874622611445E+003	3,8354697E+000	-2,7560553E-001	4,1110754E+000
3	0	9,933874622599338E+003	3,8354685E+000	-2,7560198E-001	4,1110706E+000
3	0	9,934874622587231E+003	3,8354692E+000	-2,7560246E-001	4,1110716E+000
3	0	9,935874622575124E+003	3,8354752E+000	-2,7561048E-001	4,1110859E+000
3	0	9,936874622563017E+003	3,8354747E+000	-2,7560881E-001	4,1110835E+000
3	0	9,937874622550909E+003	3,8354764E+000	-2,7561611E-001	4,1110926E+000
3	0	9,938874622538802E+003	3,8354764E+000	-2,7560744E-001	4,1110840E+000
3	0	9,939874622526695E+003	3,8354666E+000	-2,7560949E-001	4,1110764E+000
3	0	9,940874622514588E+003	3,8354592E+000	-2,7561259E-001	4,1110716E+000
3	0	9,941874622502481E+003	3,8354659E+000	-2,7561721E-001	4,1110830E+000
3	0	9,942874622490373E+003	3,8354716E+000	-2,7561605E-001	4,1110878E+000
3	0	9,943874622478266E+003	3,8354659E+000	-2,7562279E-001	4,1110888E+000
3	0	9,944874622466159E+003	3,8354630E+000	-2,7561814E-001	4,1110811E+000
3	0	9,945874622454052E+003	3,8354642E+000	-2,7560347E-001	4,1110678E+000
3	0	9,946874622441945E+003	3,8354599E+000	-2,7559957E-001	4,1110597E+000
3	0	9,947874622429837E+003	3,8354638E+000	-2,7561036E-001	4,1110740E+000
3	0	9,948874622417730E+003	3,8354723E+000	-2,7560499E-001	4,1110773E+000
3	0	9,949874622405623E+003	3,8354669E+000	-2,7560908E-001	4,1110759E+000
3	0	9,950874622393516E+003	3,8354638E+000	-2,7561319E-001	4,1110768E+000
3	0	9,951874622381409E+003	3,8354635E+000	-2,7560961E-001	4,1110730E+000
3	0	9,952874622369302E+003	3,8354607E+000	-2,7559552E-001	4,1110563E+000
3	0	9,953874622357194E+003	3,8354752E+000	-2,7560639E-001	4,1110816E+000
3	0	9,954874622345087E+003	3,8354623E+000	-2,7560845E-001	4,1110706E+000
3	0	9,955874622332980E+003	3,8354626E+000	-2,7560243E-001	4,1110649E+000
3	0	9,956874622320873E+003	3,8354638E+000	-2,7560750E-001	4,1110711E+000
3	0	9,957874622308766E+003	3,8354704E+000	-2,7560571E-001	4,1110764E+000
3	0	9,958874622296658E+003	3,8354800E+000	-2,7560675E-001	4,1110868E+000
3	0	9,959874622284551E+003	3,8354790E+000	-2,7561936E-001	4,1110983E+000
3	0	9,960874622272444E+003	3,8354826E+000	-2,7561173E-001	4,1110945E+000
3	0	9,961874622260337E+003	3,8354778E+000	-2,7562025E-001	4,1110983E+000
3	0	9,962874622248230E+003	3,8354795E+000	-2,7562192E-001	4,1111016E+000
3	0	9,963874622236122E+003	3,8354881E+000	-2,7562556E-001	4,1111135E+000
3	0	9,964874622224015E+003	3,8354776E+000	-2,7561632E-001	4,1110940E+000
3	0	9,965874622211908E+003	3,8354788E+000	-2,7562332E-001	4,1111021E+000
3	0	9,966874622199801E+003	3,8354788E+000	-2,7562222E-001	4,1111012E+000
3	0	9,967874622187694E+003	3,8354728E+000	-2,7561629E-001	4,1110892E+000
3	0	9,968874622175586E+003	3,8354702E+000	-2,7560496E-001	4,1110754E+000
3	0	9,969874622163479E+003	3,8354673E+000	-2,7559304E-001	4,1110601E+000
3	0	9,970874622151372E+003	3,8354661E+000	-2,7558783E-001	4,1110539E+000
3	0	9,971874622139265E+003	3,8354638E+000	-2,7559564E-001	4,1110592E+000
3	0	9,972874622127158E+003	3,8354616E+000	-2,7559480E-001	4,1110563E+000
3	0	9,973874622115050E+003	3,8354599E+000	-2,7559069E-001	4,1110506E+000
3	0	9,974874622102943E+003	3,8354728E+000	-2,7559516E-001	4,1110678E+000
3	0	9,975874622090836E+003	3,8354635E+000	-2,7559546E-001	4,1110592E+000
3	0	9,976874622078729E+003	3,8354642E+000	-2,7559611E-001	4,1110601E+000
3	0	9,977874622066622E+003	3,8354583E+000	-2,7560157E-001	4,1110597E+000
3	0	9,978874622054514E+003	3,8354619E+000	-2,7561793E-001	4,1110797E+000
3	0	9,979874622042407E+003	3,8354642E+000	-2,7561700E-001	4,1110811E+000
3	0	9,980874622030300E+003	3,8354666E+000	-2,7560827E-001	4,1110749E+000
3	0	9,981874622018193E+003	3,8354611E+000	-2,7560633E-001	4,1110673E+000
3	0	9,982874622006086E+003	3,8354650E+000	-2,7560827E-001	4,1110730E+000
3	0	9,983874621993979E+003	3,8354709E+000	-2,7560985E-001	4,1110806E+000
3	0	9,984874621981871E+003	3,8354685E+000	-2,7560243E-001	4,1110711E+000
3	0	9,985874621969764E+003	3,8354669E+000	-2,7560180E-001	4,1110687E+000
3	0	9,986874621957657E+003	3,8354728E+000	-2,7560797E-001	4,1110806E+000
3	0	9,987874621945550E+003	3,8354692E+000	-2,7560818E-001	4,1110773E+000
3	0	9,988874621933443E+003	3,8354704E+000	-2,7560779E-001	4,1110783E+000
3	0	9,989874621921335E+003	3,8354721E+000	-2,7560923E-001	4,1110811E+000
3	0	9,990874621909228E+003	3,8354642E+000	-2,7561748E-001	4,1110816E+000
3	0	9,991874621897121E+003	3,8354638E+000	-2,7562216E-001	4,1110859E+000
3	0	9,992874621885014E+003	3,8354647E+000	-2,7562371E-001	4,1110883E+000
3	0	9,993874621872907E+003	3,8354678E+000	-2,7561995E-001	4,1110878E+000
3	0	9,994694621862989E+003	3,8354599E+000	-2,7560431E-001	4,1110644E+000